2
-1.08696 -0.05
-1.08333 -0.0149254
-1.08 -0.0952381
-1.04348 0.0294118
-1.01786 0.0645161
-1.01493 -0.153846
-0.990991 0.347826
-0.988095 0.26087
-0.982143 0.411765
-0.97619 0.0909091
-0.961538 0.176471
-0.956522 -0.2
-0.952381 0.176471
-0.947368 0.1
-0.933333 0.4375
-0.925926 0.1
-0.925926 0.157895
-0.924378 0.134792
-0.923077 0.115385
-0.909091 0.117647
-0.896552 -0.238095
-0.85 0.451613
-0.84 -0.238095
-0.764706 -0.2
-0.736842 0.428571
-0.72 0.387097
-0.703704 -0.153846
-0.69697 0.294118
-0.68 -0.0555556
-0.678068 -0.0532854
-0.677419 -0.0454545
-0.675 -0.0555556
-0.671109 -0.0451071
-0.669688 -0.0434371
-0.663265 0.217391
-0.662488 -0.0446325
-0.657466 -0.0402477
-0.651386 0.184945
-0.65 -0.0181818
-0.649582 -0.0198087
-0.64674 -0.0308844
-0.645161 -0.037037
-0.64426 -0.0135533
-0.642857 -0.0119048
-0.642857 0.185185
-0.642215 -0.0119048
-0.64 0.153846
-0.631579 0.151515
-0.62963 0.138889
-0.627451 0
-0.626729 0.144307
-0.625332 0.146916
-0.625 -0.0119048
-0.621622 0.153846
-0.619048 0.010989
-0.616956 0.137283
-0.611265 0.136562
-0.604167 0.136364
-0.603043 0.135521
-0.602941 0.130435
-0.6 0.135135
-0.594817 0.129349
-0.594595 0.121212
-0.588235 -0.0119048
-0.586207 -0.01
-0.586117 -0.0100214
-0.582459 0.120078
-0.57316 -0.0130958
-0.565217 -0.00900901
-0.565217 0.107143
-0.562586 0.125042
-0.551724 -0.0181818
-0.55 -0.0149254
-0.548387 0.121212
-0.546694 0.116736
-0.54323 -0.0149254
-0.541667 0.103448
-0.539949 -0.0136674
-0.533125 -0.0149254
-0.53125 0.105263
-0.526316 0.0967742
-0.525 -0.00793651
-0.509091 -0.00581395
-0.509091 0.103448
-0.504194 -0.0149254
-0.501011 -0.0208456
-0.5 -0.0227273
-0.5 -0.0149254
-0.486486 0.111111
-0.483386 0.10249
-0.47619 0.103448
-0.473684 -0.0263158
-0.471339 -0.0263158
-0.464789 0.101797
-0.458333 0.111111
-0.454545 -0.0294118
-0.452381 0.1
-0.445783 0.101089
-0.44186 -0.0263158
-0.435317 0.116322
-0.433633 -0.0320326
-0.425028 0.104513
-0.414634 -0.0243902
-0.414031 -0.0243902
-0.409091 0.107143
-0.404255 -0.0357143
-0.399029 0.109013
-0.395349 -0.0243902
-0.389119 -0.0295818
-0.384615 0.103448
-0.384366 -0.0276563
-0.374292 -0.0287655
-0.368421 -0.0294118
-0.365128 0.0980825
-0.363004 0.107739
-0.36 -0.0140845
-0.355134 -0.0158138
-0.352941 -0.0149254
-0.352941 0.0967742
-0.347265 0.0985873
-0.346154 0.107143
-0.340133 0.097151
-0.338263 0.0967742
-0.334661 0.096947
-0.333333 0.0967742
-0.330025 0.0967742
-0.326147 -0.0261148
-0.325581 -0.0263158
-0.323529 -0.00598802
-0.310345 -0.0263158
-0.307358 -0.0294118
-0.3 -0.037037
-0.291667 0.0930233
-0.285714 -0.0294118
-0.272727 -0.0434783
-0.270626 0.0967742
-0.26087 0.0930233
-0.258232 0.0940984
-0.255943 0.0950314
-0.253726 -0.0221276
-0.251667 0.0967742
-0.246467 -0.0294118
-0.244898 -0.0285714
-0.24384 0.0999647
-0.243435 0.0935469
-0.235294 0.103448
-0.231143 -0.0273492
-0.222222 -0.0294118
-0.222222 0.103448
-0.219512 -0.0263158
-0.217391 0.0967742
-0.20049 0.0969233
-0.197578 0.096049
-0.1875 0.0930233
-0.180567 0.0912036
-0.178571 -0.0227273
-0.177615 0.0953184
-0.176471 0.0952381
-0.164384 0.0869565
-0.16129 -0.05
-0.157895 -0.0294118
-0.156997 0.0903252
-0.155279 -0.0294118
-0.152174 -0.030303
-0.151174 -0.0307516
-0.15047 -0.0294118
-0.149783 0.0936156
-0.148394 0.0942489
-0.143451 -0.0160563
-0.142857 -0.0344828
-0.142857 -0.0149254
-0.142857 0.0967742
-0.122449 0.0980392
-0.106997 -0.0140492
-0.105263 -0.0322581
-0.105263 0.0909091
-0.102564 0.0925715
-0.0927123 0.0898628
-0.0845773 0.087626
-0.0772396 -0.0294118
-0.0689655 -0.0285714
-0.0689655 0.0833333
-0.0670216 -0.0294118
-0.0571429 0.0909091
-0.0507649 0.0863657
-0.0454545 -0.0294118
-0.0344828 -0.0434783
-0.0204082 0.08
-0.0192308 -0.0119048
0.0217391 0.08
0.0222175 -0.0328969
0.0222222 0.0869565
0.0230037 0.0802158
0.025641 -0.0322581
0.0393568 0.0830067
0.047619 -0.0322581
0.0483295 0.0845381
0.0531208 -0.0340065
0.0549308 -0.0345817
0.0606061 -0.0344828
0.0625 0.0769231
0.0625 0.0869565
0.0645433 -0.0350767
0.0769231 -0.0357143
0.0820308 0.0814162
0.0853704 0.0812917
0.0865628 0.0809964
0.0938895 0.0791816
0.100792 0.0796783
0.103448 -0.05
0.105263 0.08
0.133333 -0.0454545
0.135135 0.0689655
0.15 -0.0384615
0.16129 0.0740741
0.169811 -0.0434783
0.169811 0.0769231
0.181818 0.0588235
0.184211 -0.0434783
0.2 -0.05
0.200536 0.070289
0.222235 -0.0508452
0.22449 -0.0512821
0.226262 -0.0509982
0.227273 0.0645161
0.237896 0.0650606
0.238095 0.0666667
0.252336 0.0666667
0.26087 -0.0454545
0.269231 -0.0526316
0.269231 0.0666667
0.289396 -0.0560125
0.294118 0.0714286
0.304448 0.0688468
0.306934 0.0730337
0.318182 -0.0666667
0.318182 0.0740741
0.323529 -0.0416667
0.329448 -0.0627278
0.346154 0.0714286
0.348343 0.0714903
0.35 0.0714286
0.352898 -0.0424341
0.352941 -0.0666667
0.363636 0.0540541
0.365854 -0.05
0.375 -0.0714286
0.379267 0.0632839
0.382353 -0.0512821
0.388889 0.0606061
0.390566 0.0699562
0.391057 0.0726944
0.391304 0.0740741
0.392857 -0.0434783
0.395411 0.0728171
0.397698 0.0741677
0.407386 0.0798889
0.409091 0.08
0.419355 0.0869565
0.425926 -0.0571429
0.433333 -0.05
0.44 0.0740741
0.441754 0.0748127
0.444444 0.0909091
0.454545 0.075
0.458333 0.0882353
0.458499 0.0884093
0.463745 0.0840745
0.464286 -0.0555556
0.466667 0.0869565
0.470588 0.0869565
0.471973 -0.061553
0.472222 -0.0882353
0.506667 0.138889
0.515152 -0.0952381
0.518519 0.193548
0.535714 -0.222222
0.548387 -0.266667
0.552632 0.315789
0.56 -0.314286
0.608696 -0.37037
0.612903 0.380952
0.703704 -0.387097
0.71875 0.0277778
0.722222 -0.0037037
0.722222 0.00598802
0.724138 0.424242
0.728625 0.0146293
0.729096 0.000881515
0.72973 0.0131579
0.733333 -0.0140845
0.73388 -0.0113278
0.735376 -0.00378312
0.737399 0.00641952
0.738095 -0.0140845
0.739051 0.0147509
0.73913 0.0151515
0.739275 0.0147892
0.740992 0.0313211
0.741513 0.00916397
0.742009 0.0326939
0.743193 -0.00958967
0.747475 -0.00581395
0.75 -0.0181818
0.75 0.0434783
0.750677 -0.0244486
0.753623 0.0172414
0.753623 0.0333333
0.75409 -0.0176844
0.757576 -0.0285714
0.76084 -0.0226982
0.764706 -0.0163934
0.765577 -0.0262172
0.766667 -0.027027
0.767594 -0.0272745
0.770763 -0.0268327
0.770821 -0.0268568
0.77089 -0.0268478
0.775 -0.0263158
0.779351 -0.0304113
0.783784 -0.0322581
0.785498 -0.0320513
0.789474 0.0833333
0.8 -0.030303
0.809524 -0.0384615
0.823529 -0.387097
0.823529 0.432432
0.85 -0.37037
0.85 -0.0434783
0.878788 0.130435
0.882353 -0.0740741
0.9 0.130435
0.903226 0.394737
0.92 -0.344828
0.933333 -0.30303
0.944444 0.1875
0.944444 0.277778
0.947368 0.322581
0.967742 -0.142857
0.97619 -0.258065
