2
-0.782609 0.28
-0.764706 0.227273
-0.764706 0.380952
-0.761905 0.32
-0.756098 0.153846
-0.756098 0.336735
-0.754806 0.30908
-0.753961 0.360482
-0.753247 0.368421
-0.751462 0.355721
-0.748151 0.369282
-0.747082 0.37366
-0.744681 0.0322581
-0.743976 0.34146
-0.741935 0.1
-0.741935 0.181818
-0.741935 0.394737
-0.741236 0.180927
-0.740188 0.236745
-0.739876 0.370679
-0.73913 0.37037
-0.737378 0.126491
-0.736842 0.233333
-0.736842 0.327869
-0.736842 0.35
-0.733333 0.15
-0.730769 0.0149254
-0.730769 0.2
-0.724138 0.107143
-0.724138 0.411765
-0.722222 0.0833333
-0.718613 0.391146
-0.716981 0.15
-0.714286 -0.05
-0.714286 0.0357143
-0.714286 0.0588235
-0.714286 0.246753
-0.714286 0.375
-0.703704 0.444444
-0.69721 0.411765
-0.692308 0.387097
-0.684211 -0.0555556
-0.68 0.00900901
-0.679778 0.00867183
-0.677419 0.44
-0.672068 -0.0271585
-0.666667 -0.08
-0.666667 0.432432
-0.665823 -0.0125523
-0.663265 0.411765
-0.660377 -0.0208333
-0.657895 0.00598802
-0.657353 0.439305
-0.647531 -0.102475
-0.647059 -0.133333
-0.642857 0.45
-0.635447 -0.116669
-0.633333 -0.113636
-0.631579 -0.1875
-0.631579 -0.130716
-0.631579 -0.121212
-0.621622 -0.129032
-0.615385 0.481481
-0.613138 -0.180398
-0.612903 -0.181818
-0.60846 0.45139
-0.605432 -0.17743
-0.605263 0.4375
-0.602941 -0.176471
-0.602941 0.451613
-0.588235 0.473684
-0.583333 0.505263
-0.580645 0.511111
-0.578947 -0.178571
-0.57585 0.510434
-0.575758 -0.16
-0.56 0.508197
-0.548387 -0.225
-0.548387 0.529412
-0.515152 -0.214286
-0.512195 0.535714
-0.509458 0.540102
-0.509434 0.511111
-0.506667 0.493333
-0.503759 0.541667
-0.497235 -0.209034
-0.494845 -0.235294
-0.494845 -0.210526
-0.494845 -0.208333
-0.486486 0.576923
-0.48 0.541667
-0.473684 0.521739
-0.459568 0.53476
-0.454545 -0.25
-0.441176 0.551724
-0.433506 -0.253235
-0.431373 0.55
-0.423077 -0.26087
-0.421053 0.521739
-0.412291 -0.256497
-0.407407 0.588235
-0.406069 0.588173
-0.404255 0.590909
-0.388889 -0.304348
-0.380952 -0.272727
-0.378847 -0.26164
-0.375 -0.241379
-0.368421 -0.30303
-0.368421 0.604167
-0.363636 0.586207
-0.35 0.583333
-0.346154 -0.266667
-0.34259 0.580393
-0.338235 -0.314286
-0.33422 -0.311605
-0.323529 -0.314286
-0.304348 -0.291667
-0.3 -0.263158
-0.3 0.568627
-0.28125 0.571429
-0.280503 0.572314
-0.28 0.555556
-0.269231 -0.3
-0.257143 0.6
-0.25 -0.315789
-0.24491 -0.317575
-0.222222 0.583333
-0.214286 -0.347826
-0.205882 0.595745
-0.2 -0.333333
-0.193014 0.572693
-0.192308 0.571429
-0.184211 -0.344828
-0.184211 -0.320175
-0.184211 -0.285714
-0.176471 0.566667
-0.172414 0.533333
-0.152157 -0.293464
-0.145167 0.539632
-0.142857 -0.285714
-0.136364 0.541667
-0.133333 0.529412
-0.115385 -0.277778
-0.115385 0.568627
-0.107143 -0.304348
-0.107143 0.526316
-0.104509 0.524199
-0.0909091 0.521739
-0.0555556 0.484848
-0.0465173 0.494812
-0.0454545 -0.258065
-0.0434783 -0.258065
-0.043344 -0.25819
-0.037037 0.505263
-0.0192308 0.478261
-0.0135135 0.416667
-0.0135135 0.444444
-0.0120706 0.47128
-0.0105263 0.5
0.0045045 -0.30303
0.0277778 0.413793
0.0277778 0.432432
0.0374412 0.411825
0.04 -0.263158
0.0454545 0.394737
0.047619 -0.246753
0.0555556 0.380952
0.0570147 -0.246753
0.0689655 0.405405
0.0714286 -0.246753
0.0833333 0.307692
0.0833333 0.327869
0.0833333 0.339623
0.0882478 0.336563
0.0888147 0.371394
0.09375 0.4
0.105263 0.366667
0.111111 -0.166667
0.111111 0.0555556
0.115385 -0.190476
0.118621 -0.18833
0.130435 0.227273
0.130435 0.26087
0.133333 -0.230769
0.133333 -0.178571
0.134422 0.278995
0.136364 0.0869565
0.137931 -0.153846
0.14 0.275862
0.14 0.304348
0.148148 0.1875
0.153846 0.129032
0.153846 0.222222
0.155922 0.220864
0.157895 0.0833333
0.16129 0.243902
0.166667 0.153846
0.1706 0.159766
0.172414 -0.171429
0.173913 0.047619
0.174024 0.0475382
0.176471 -0.0555556
0.176471 -0.027027
0.1875 0.138889
0.191073 -0.147792
0.194444 0.195652
0.197183 0.117647
0.2 -0.0666667
0.200024 -0.0662146
0.202715 -0.0158354
0.204893 0.0249545
0.205882 -0.129032
0.205882 0.0434783
0.208333 -0.0967742
0.210526 0.0208333
0.211316 -0.089299
0.217391 -0.0740741
0.222222 -0.111111
0.225806 -0.00598802
