2
-0.814815 0.208333
-0.8125 0.197368
-0.810811 0.25641
-0.793103 0.268293
-0.791667 0.135135
-0.782609 0.114286
-0.772727 0.114286
-0.757576 0.272727
-0.741935 0.275862
-0.733333 0.275862
-0.731707 0.272727
-0.727273 0.117647
-0.72 -0.269231
-0.72 -0.254237
-0.72 -0.25
-0.72 -0.235294
-0.717949 -0.225
-0.717949 0.272727
-0.714286 -0.202532
-0.714286 -0.192308
-0.713421 -0.216476
-0.713094 -0.200259
-0.71127 -0.212426
-0.710526 -0.285714
-0.710526 -0.277778
-0.710526 -0.275862
-0.710526 -0.269513
-0.710526 -0.266667
-0.710526 -0.263158
-0.710526 -0.25
-0.710526 -0.225
-0.710526 -0.217391
-0.709653 -0.278132
-0.709019 -0.272618
-0.708393 -0.267183
-0.708333 -0.266667
-0.708333 -0.206897
-0.708333 -0.193548
-0.705528 -0.279807
-0.701484 -0.178116
-0.700653 -0.281786
-0.7 -0.283019
-0.7 -0.282051
-0.7 -0.176471
-0.7 0.127273
-0.698712 -0.172828
-0.697191 -0.288265
-0.697038 0.274761
-0.695652 -0.302326
-0.695652 -0.300148
-0.695652 -0.291667
-0.695652 -0.164179
-0.694444 -0.178571
-0.693161 -0.162242
-0.689655 -0.3125
-0.689655 -0.155556
-0.6875 0.275862
-0.685714 0.275862
-0.684211 -0.3125
-0.684211 -0.166667
-0.68 -0.327586
-0.677419 -0.15
-0.67702 -0.148736
-0.675676 -0.153846
-0.675676 0.275862
-0.673913 -0.147059
-0.673913 -0.138889
-0.671875 -0.144928
-0.671778 -0.144712
-0.66985 -0.14042
-0.668379 -0.140975
-0.666667 -0.133333
-0.664288 -0.136478
-0.664256 0.275862
-0.657895 -0.144928
-0.653846 -0.125
-0.65 -0.108108
-0.647059 -0.34375
-0.647059 0.133333
-0.642857 0.275862
-0.634937 0.276847
-0.631579 -0.342105
-0.627451 0.133333
-0.627451 0.277778
-0.615385 -0.0857143
-0.613636 0.277778
-0.612903 -0.0714286
-0.606061 0.133333
-0.602151 -0.34375
-0.592896 0.279806
-0.590909 -0.321429
-0.590909 0.28
-0.588235 0.28
-0.586207 -0.0263158
-0.575758 -0.30303
-0.569231 0.28
-0.566667 0.28
-0.565217 0.133333
-0.5625 -0.28125
-0.56 0.010989
-0.555556 0.133333
-0.555556 0.28
-0.541073 0.28
-0.538462 -0.241379
-0.533333 0.28
-0.529412 0.0277778
-0.525217 0.280533
-0.514286 0.28125
-0.512821 -0.210526
-0.512821 0.121212
-0.504854 0.0540541
-0.504854 0.0714286
-0.504854 0.0769231
-0.503862 0.28125
-0.497512 0.28125
-0.492308 -0.2
-0.488372 0.28
-0.486486 0.533333
-0.486486 0.555556
-0.483871 0.485714
-0.483871 0.508197
-0.480754 0.281918
-0.480257 0.282043
-0.47619 0.466667
-0.473684 0.586207
-0.463415 0.282609
-0.461538 -0.15
-0.461538 0.434783
-0.454545 0.421053
-0.452381 -0.102564
-0.448276 0.605263
-0.447368 0.290323
-0.434783 -0.0769231
-0.416667 0.542857
-0.414634 0.310345
-0.414634 0.527778
-0.414634 0.617647
-0.413793 0.612903
-0.409091 -0.0526316
-0.405405 0.454545
-0.403226 0.396226
-0.403226 0.464286
-0.403226 0.521739
-0.403226 0.555556
-0.4 -0.030303
-0.399831 0.458636
-0.399064 0.459199
-0.396061 0.452362
-0.392857 0.340909
-0.392857 0.451613
-0.391304 0.347826
-0.391304 0.444444
-0.388889 0.384615
-0.388889 0.466667
-0.388889 0.52381
-0.388889 0.56
-0.387097 0.0555556
-0.387097 0.365854
-0.387097 0.617647
-0.382353 0.0689655
-0.382353 0.466667
-0.380952 0.05
-0.380952 0.551724
-0.37931 0.52381
-0.375 -0.0243902
-0.375 0.173913
-0.375 0.423077
-0.375 0.457143
-0.372093 0.619048
-0.37037 0.0416667
-0.37037 0.16
-0.368421 0.08
-0.366667 0.146341
-0.363636 -0.0263158
-0.361111 0.0810811
-0.361111 0.62069
-0.36 0.0833333
-0.354839 0.04
-0.354839 0.138889
-0.354839 0.454545
-0.351351 0.0740741
-0.35 0.0714286
-0.35 0.176471
-0.35 0.421053
-0.35 0.625
-0.347826 -0.0285714
-0.347826 0.047619
-0.346154 0.05
-0.346154 0.0625
-0.346154 0.451613
-0.341463 0.175
-0.341463 0.622222
-0.339623 0.146341
-0.337662 0.259259
-0.337662 0.263158
-0.335664 0.151515
-0.335664 0.163636
-0.335664 0.25
-0.333333 0.176471
-0.333333 0.246154
-0.327273 0.421053
-0.326049 0.627739
-0.325581 -0.0512821
-0.325581 0.627907
-0.323529 0.242424
-0.323529 0.268293
-0.32 -0.0666667
-0.32 0.246154
-0.32 0.454545
-0.318182 0.272727
-0.315789 -0.0869565
-0.310345 -0.0869565
-0.310345 0.268293
-0.310345 0.425926
-0.309524 0.62963
-0.307692 0.461538
-0.305437 -0.100454
-0.304348 -0.103448
-0.304348 0.631579
-0.30303 -0.113208
-0.30303 0.25641
-0.3 0.246154
-0.296296 0.428571
-0.296296 0.464286
-0.294118 -0.128205
-0.291667 0.631579
-0.288889 0.464286
-0.283019 -0.151515
-0.28125 -0.162162
-0.277778 0.44
-0.275862 0.466667
-0.275862 0.631579
-0.272727 0.538462
-0.27027 0.526316
-0.269231 0.62963
-0.266667 -0.172414
-0.266667 0.446809
-0.266667 0.464286
-0.264706 -0.179487
-0.264706 0.551724
-0.262001 -0.184945
-0.259259 -0.192308
-0.259259 -0.190476
-0.254902 0.518519
-0.254902 0.56
-0.253521 0.62963
-0.253165 -0.202532
-0.243243 0.518519
-0.24 0.5625
-0.238095 0.419355
-0.235294 0.396226
-0.230769 -0.217391
-0.229092 -0.224934
-0.228571 -0.227273
-0.228571 0.521739
-0.227273 0.548387
-0.225806 0.62963
-0.225 0.533333
-0.222222 0.010989
-0.222222 0.0526316
-0.222222 0.444444
-0.214286 0.347826
-0.214286 0.628571
-0.210526 0.105263
-0.208333 0.115385
-0.203125 0.62963
-0.202899 -0.252336
-0.202381 0.338983
-0.196352 0.626731
-0.196078 0.338983
-0.195122 -0.266667
-0.194444 -0.0204082
-0.192308 0.625
-0.190476 -0.26087
-0.190476 -0.027027
-0.190476 0.454545
-0.1875 0.127273
-0.18572 -0.0287141
-0.185185 -0.277778
-0.181818 0.622222
-0.179487 0.625
-0.178571 -0.296296
-0.178571 -0.03125
-0.177836 -0.0362201
-0.176471 -0.0454545
-0.176471 0.481481
-0.174391 0.617334
-0.174173 -0.0551074
-0.173913 -0.0555556
-0.173913 0.328571
-0.173913 0.46875
-0.173084 0.615368
-0.172414 -0.0625
-0.171429 0.615385
-0.170213 -0.290323
-0.170213 -0.0434783
-0.166667 -0.3125
-0.163972 -0.0668966
-0.162791 0.127273
-0.16129 0.487805
-0.16 -0.0714286
-0.16 -0.0689655
-0.16 0.328571
-0.158508 -0.321876
-0.157895 -0.323529
-0.157895 -0.322581
-0.15671 -0.0729537
-0.153846 0.489796
-0.152174 0.487179
-0.150456 -0.075853
-0.15 0.580645
-0.148148 -0.0869565
-0.148148 -0.0833333
-0.148148 -0.0796355
-0.148148 -0.0769231
-0.147059 0.571429
-0.144572 -0.0892324
-0.140844 -0.091605
-0.14 -0.0967742
-0.139535 -0.09375
-0.139535 0.553191
-0.139391 0.550785
-0.138889 0.551724
-0.137931 -0.340426
-0.136602 0.504005
-0.136364 0.5
-0.136364 0.504202
-0.135135 -0.0952381
-0.133333 0.52
-0.133333 0.533333
-0.125 -0.117647
-0.122449 0.127273
-0.121212 -0.35
-0.121212 -0.105263
-0.115385 -0.36
-0.108108 -0.125
-0.107143 -0.358974
-0.105263 -0.129032
-0.105263 0.326531
-0.103448 -0.117647
-0.102526 -0.12756
-0.1 0.125
-0.0930233 -0.122449
-0.0869565 -0.372093
-0.0833333 -0.136364
-0.0833333 0.121212
-0.0740741 0.12
-0.0700561 0.120024
-0.0697826 0.12
-0.0625 -0.148148
-0.0588235 0.314286
-0.0512821 -0.384615
-0.0454545 -0.166667
-0.0434783 0.117647
-0.0263158 -0.185185
-0.0243902 -0.384615
-0.0243902 0.305556
-0.0188679 0.12
-0.016129 0.115385
-0.0158493 0.120355
-0.00854701 0.121212
-0.00564972 -0.380952
0 0.3
0.00278552 -0.216216
0.00632132 0.12049
0.0163934 0.12
0.0217391 -0.235294
0.0285714 0.12
0.0294118 -0.372093
0.0416667 0.288462
0.047619 0.12
0.0483497 0.281197
0.0526316 -0.269231
0.0555556 -0.347826
0.0571429 -0.337838
0.0571429 -0.315789
0.0571429 0.277778
0.0625 0.282609
0.0641509 0.120842
0.0714286 0.121212
0.075 0.115385
0.08 0.27027
0.0857143 0.121212
0.0885964 0.260439
0.09375 0.254545
0.0962276 0.121037
0.0967742 0.242424
0.0968855 0.121212
0.1 0.233333
0.102341 0.222511
0.103448 0.217391
0.103448 0.252252
0.111111 0.125
0.115385 0.121212
0.115385 0.208333
0.115385 0.214286
0.12 0.203704
0.121212 0.195652
0.125 0.121212
0.125 0.181818
0.125 0.205882
0.126095 0.20256
0.127273 0.148148
0.129032 0.129032
0.129032 0.132728
0.129032 0.138889
0.129032 0.185185
0.129586 0.191975
0.130435 0.133333
0.130435 0.193548
0.130977 0.144597
0.131825 0.185185
0.132319 0.183687
0.132766 0.142882
0.133333 0.151515
0.133333 0.173913
0.13376 0.179315
0.134796 0.176173
0.135135 0.157895
0.135135 0.185185
0.136351 0.178575
0.136364 0.178571
0.137527 0.167893
0.137931 0.137931
0.137931 0.164179
0.137931 0.166667
0.137943 0.18959
0.137988 0.181102
0.13877 0.167472
0.14 0.184211
0.141687 0.179416
0.142857 0.184211
0.148148 0.176471
0.148148 0.184211
