2
-0.903226 0.454545
-0.896552 0.454545
-0.895926 0.444099
-0.894737 0.421053
-0.894737 0.424242
-0.882316 0.465492
-0.879821 0.421053
-0.878788 0.421053
-0.869565 0.454545
-0.866667 0.473684
-0.861111 0.466667
-0.860808 0.466957
-0.857143 0.416667
-0.857143 0.484848
-0.852941 0.454545
-0.852826 0.382423
-0.85 0.36
-0.85 0.378378
-0.85 0.454545
-0.843462 0.350874
-0.842105 0.484848
-0.833333 0.336735
-0.829268 0.421053
-0.826087 0.277778
-0.819968 0.41608
-0.818182 0.32
-0.818182 0.413793
-0.809524 -0.823529
-0.806452 0.272727
-0.804348 -0.785714
-0.8 -0.818182
-0.8 -0.805556
-0.8 -0.708333
-0.8 0.405405
-0.791667 -0.826087
-0.789474 -0.714286
-0.785714 -0.74359
-0.777778 0.391304
-0.775 -0.823529
-0.772727 0.225
-0.772727 0.239572
-0.772727 0.269231
-0.761905 0.36
-0.758621 -0.83871
-0.758621 0.208333
-0.753247 0.368421
-0.73913 -0.71875
-0.736842 -0.815789
-0.733333 -0.695652
-0.724138 -0.681818
-0.722222 0.342857
-0.72 -0.64
-0.719362 -0.635535
-0.716981 -0.772727
-0.714286 -0.6
-0.71071 0.302598
-0.705882 0.285714
-0.703704 -0.555556
-0.7 -0.508197
-0.7 0.1875
-0.699577 0.186628
-0.69697 -0.590909
-0.69697 0.136364
-0.695822 0.178883
-0.695652 0.185185
-0.695652 0.285714
-0.692308 -0.611111
-0.686627 -0.494868
-0.685714 -0.47619
-0.684211 0.272727
-0.677419 -0.794118
-0.675 0.0714286
-0.675 0.115385
-0.672131 -0.75
-0.64 -0.746032
-0.636985 0.0575318
-0.633333 0.05
-0.631579 -0.44
-0.631579 0.0555556
-0.625 -0.413793
-0.625 0.25
-0.623542 -0.376698
-0.621622 -0.327869
-0.608696 -0.352941
-0.608696 0.0416667
-0.608696 0.246753
-0.607705 -0.721095
-0.605263 -0.72
-0.602791 -0.717302
-0.60042 0.0172118
-0.6 0.233333
-0.594595 0
-0.582227 -0.316202
-0.578949 -0.00417664
-0.578947 -0.285714
-0.57644 -0.30817
-0.575758 -0.314286
-0.565217 -0.227273
-0.5625 0.204082
-0.561778 0.203648
-0.56 -0.670588
-0.552632 -0.678571
-0.55 -0.138889
-0.55 -0.0119048
-0.548387 -0.269231
-0.543304 -0.207523
-0.538985 -0.155088
-0.537399 -0.135832
-0.535714 -0.115385
-0.535714 -0.0357143
-0.531601 -0.0513438
-0.529412 0.173913
-0.526316 -0.0714286
-0.518519 -0.185185
-0.515152 -0.130435
-0.512529 -0.633967
-0.512195 -0.0882353
-0.512195 0.173913
-0.509434 -0.631579
-0.509434 -0.130435
-0.508474 -0.629457
-0.507315 -0.107134
-0.506667 -0.1
-0.502135 0.1528
-0.491803 -0.592593
-0.488889 0.125
-0.482759 -0.1
-0.473684 0.125
-0.471833 0.129345
-0.470524 -0.587245
-0.467565 0.126042
-0.464286 0.147059
-0.451037 0.113248
-0.45 0.129032
-0.448276 -0.5625
-0.448276 0.111111
-0.447719 0.112218
-0.439256 0.129032
-0.4375 -0.578947
-0.4375 -0.484848
-0.434147 0.139183
-0.433333 0.129032
-0.431373 0.107143
-0.429023 0.137844
-0.428571 -0.490566
-0.428571 -0.470335
-0.428571 -0.466667
-0.423077 0.130435
-0.423077 0.13629
-0.423077 0.15
-0.416667 0.166667
-0.416667 0.173913
-0.413793 0.2
-0.411765 0.133333
-0.409091 -0.428571
-0.409091 0.26087
-0.407407 0.235294
-0.404851 0.276181
-0.404255 -0.388889
-0.404255 0.285714
-0.400455 -0.424632
-0.399674 0.294878
-0.392637 -0.411923
-0.391304 0.363636
-0.388889 -0.419355
-0.3872 0.339928
-0.384615 0.325
-0.37931 -0.363636
-0.37931 0.368421
-0.375 0.416667
-0.37037 0.421053
-0.364437 0.445207
-0.363636 0.447368
-0.36341 0.449384
-0.359331 -0.357784
-0.357143 -0.357143
-0.357143 -0.354226
-0.357143 -0.325
-0.357143 0.505263
-0.348155 0.511483
-0.34375 0.529412
-0.340909 -0.307692
-0.333333 0.521739
-0.333333 0.561359
-0.333333 0.566667
-0.329568 0.572907
-0.326531 -0.263158
-0.321929 -0.296986
-0.315789 0.595745
-0.315236 -0.286107
-0.312558 0.625078
-0.3125 -0.291667
-0.310345 0.645161
-0.307692 0.64
-0.296296 -0.255319
-0.296296 -0.238095
-0.285795 0.658002
-0.28125 -0.235294
-0.269231 0.666667
-0.263158 0.676471
-0.24 -0.28
-0.24 0.695652
-0.238095 0.678571
-0.231625 0.666926
-0.230769 0.666667
-0.227273 0.62069
-0.225806 0.636364
-0.222222 0.65
-0.21875 0.604167
-0.217391 -0.285714
-0.214286 -0.304348
-0.214286 0.576923
-0.214286 0.578947
-0.214286 0.631579
-0.212026 0.570126
-0.210526 0.241379
-0.202899 0.0645161
-0.202899 0.352941
-0.2 0.255319
-0.2 0.341873
-0.2 0.363441
-0.2 0.366667
-0.199986 0.255102
-0.197584 0.218743
-0.194444 0.0869565
-0.194444 0.466667
-0.194444 0.50149
-0.194444 0.517241
-0.192831 0.409745
-0.192308 0.0645161
-0.192308 0.138889
-0.192308 0.3125
-0.192308 0.391304
-0.190476 -0.315789
-0.184211 0.105263
-0.184211 0.461538
-0.181818 0.15
-0.178612 -0.334955
-0.176471 0.181818
-0.176471 0.285714
-0.172414 -0.15
-0.172414 -0.138889
-0.172414 -0.133333
-0.172414 -0.125
-0.172414 0.0625
-0.170812 -0.143034
-0.169627 -0.135991
-0.169271 -0.13633
-0.169057 -0.135399
-0.168165 -0.131518
-0.168154 -0.131471
-0.168133 -0.131504
-0.166987 -0.133246
-0.166667 -0.125
-0.166585 -0.153976
-0.163343 -0.129457
-0.157895 -0.368421
-0.157895 -0.176471
-0.157895 -0.147059
-0.157872 -0.147198
-0.157211 -0.123081
-0.156936 -0.122794
-0.155488 -0.161545
-0.153846 -0.171429
-0.153115 -0.12225
-0.145833 -0.121212
-0.141945 -0.120312
-0.140479 -0.119685
-0.138631 -0.173043
-0.137931 -0.185185
-0.136364 0.0526316
-0.135581 -0.371874
-0.130435 -0.173913
-0.130435 -0.117647
-0.130435 -0.0952381
-0.130435 0.0645161
-0.128315 -0.175378
-0.125 -0.380952
-0.121951 0.0588235
-0.115385 -0.375
-0.115385 -0.0869565
-0.111111 -0.210526
-0.110987 -0.1919
-0.109644 0.082487
-0.105263 0.0909091
-0.0962576 0.0940571
-0.09375 -0.447368
-0.09375 -0.412488
-0.09375 -0.411765
-0.09375 -0.208333
-0.0778584 -0.214496
-0.0689655 0.117647
-0.063866 -0.219923
-0.0588235 0.107143
-0.0569673 0.132346
-0.0555556 0.151515
-0.04781 -0.458847
-0.047619 -0.08
-0.0434783 -0.246753
-0.04 -0.0526316
-0.037037 -0.461538
-0.0313538 0.163726
-0.0285714 -0.478261
-0.0222222 0
-0.0163934 -0.470588
-0.010252 -0.260611
-0.00507245 0.0116322
0.00299922 -0.266137
0.0045045 0.0322581
0.0045045 0.181818
0.0104167 -0.269231
0.0135135 -0.487805
0.0135135 0.210526
0.0163934 0.222222
0.0344828 0.0384615
0.047619 -0.263158
0.05 -0.28
0.05 0.0555556
0.05 0.233333
0.0514874 0.0582313
0.0588235 0.0714286
0.0625 -0.521739
0.0664156 -0.52988
0.0740741 -0.30303
0.0769231 -0.551724
0.0833333 0.0769231
0.0951497 -0.329828
0.0996921 -0.335604
0.103448 0.0869565
0.107143 0.0909091
0.107143 0.258065
0.110877 0.265092
0.117647 0.125
0.12 0.269231
0.122812 -0.348947
0.125 0.291667
0.128101 -0.354982
0.133333 -0.378378
0.15 0.129032
0.155861 0.306931
0.15625 -0.387097
0.16129 -0.583333
0.173913 0.151515
0.181818 -0.619048
0.181818 -0.592593
0.184211 0.336735
0.1875 0.322581
0.192964 0.344154
0.194444 0.35
0.2 0.185185
0.201089 0.351042
0.210256 -0.411019
0.216842 -0.413937
0.217391 -0.424242
0.235894 0.196328
0.238095 -0.653846
0.24 0.357143
0.245283 0.204082
0.25641 0.241379
0.257657 0.230955
0.259259 -0.444444
0.259259 0.4
0.259578 0.400619
0.26087 0.204082
0.266443 0.250037
0.266667 -0.676471
0.269231 0.419355
0.272727 0.411765
0.28 -0.71875
0.285714 -0.461538
0.285714 -0.444444
0.285714 0.266667
0.291667 0.4375
0.299505 -0.468289
0.3 0.277778
0.307692 -0.7
0.307692 0.307692
0.307692 0.339623
0.3125 0.458333
0.31933 0.461199
0.326531 -0.708333
0.329412 -0.52
0.329412 0.32
0.333333 -0.484848
0.338235 0.357143
0.343692 -0.706741
0.352941 -0.705882
0.352941 0.37037
0.354839 -0.517241
0.36 0.478261
0.363636 0.508197
0.375 0.4
0.377906 0.392445
0.3792 0.510565
0.380952 0.513514
0.384615 0.375
0.395833 -0.529412
0.398578 0.513514
0.404255 0.419355
0.404255 0.447368
0.411765 0.513514
0.417522 -0.720565
0.421053 0.505263
0.423077 0.517241
0.423776 0.495483
0.42519 0.451469
0.425926 0.428571
0.425926 0.451613
0.428571 0.478261
0.473684 -0.733333
0.473684 -0.545455
0.479715 -0.73221
0.485714 -0.733333
0.494737 -0.571429
0.52756 -0.584045
0.533333 -0.722222
0.538462 -0.588235
0.571429 -0.722222
0.576923 -0.6
0.58779 -0.612976
0.592593 -0.615385
0.600629 -0.628306
0.611111 -0.645161
0.618658 -0.649834
0.625 -0.72
0.633333 -0.705882
0.652174 -0.670588
0.664147 -0.704152
0.672131 -0.703704
0.672131 -0.6875
0.677419 -0.72
